H [A/m];M [A/m];M1 [A/m];M2 [A/m];dM/dH;dM1/dH;dM2/dH;dM/dlogH [A/m];dM1/dlogH [A/m];dM2/dlogH [A/m]
1.56526316574812e-06;0.00158389574137306;0.00136763630145019;0.000216259439922863;1011.90379583174;873.742083057069;138.16171277467;0.00158389573889613;0.00136763629897327;0.000216259439922863
1.93214290742155e-06;0.0019551427445861;0.00168819457117131;0.000266948173414793;1011.90379583174;873.742083057069;138.16171277467;0.00195514274210924;0.00168819456869445;0.000266948173414793
2.38501505458677e-06;0.00241340578932897;0.00208388802439389;0.000329517764935082;1011.90379583174;873.742083057069;138.16171277467;0.00241340578685219;0.00208388802191711;0.000329517764935082
2.94403524126306e-06;0.00297908043817318;0.00257232748677128;0.000406752951401895;1011.90379583174;873.742083057069;138.16171277467;0.0029790804356965;0.00257232748429461;0.000406752951401895
3.63408335101708e-06;0.00367734273973965;0.00317525155959722;0.000502091180142433;1011.90379583174;873.742083057069;138.16171277467;0.00367734273726311;0.00317525155712067;0.000502091180142433
4.48587082689729e-06;0.00453926971982462;0.00391949412309457;0.000619775596730057;1011.90379583174;873.742083057069;138.16171277467;0.00453926971734823;0.00391949412061818;0.000619775596730057
5.53730752212283e-06;0.00560322250279993;0.00483817861138337;0.000765043891416556;1011.90379583174;873.742083057069;138.16171277467;0.00560322250032373;0.00483817860890718;0.000765043891416556
6.83518892490394e-06;0.00691655362081332;0.00597219221181013;0.000944361409003186;1011.90379583174;873.742083057069;138.16171277467;0.00691655361833736;0.00597219220933418;0.000944361409003186
8.43727884941788e-06;0.00853771449669247;0.0073720055996994;0.00116570889699307;1011.90379583174;873.742083057069;138.16171277467;0.00853771449421681;0.00737200559722373;0.00116570889699308
1.04148802856733e-05;0.0105388568966812;0.00909991919806947;0.00143893769861177;1011.90379583174;873.742083057069;138.16171277467;0.0105388568942059;0.00909991919559417;0.00143893769861177
1.28560088271101e-05;0.0130090441338739;0.0112328359348741;0.00177620819899982;1011.90379583174;873.742083057069;138.16171277467;0.0130090441313991;0.0112328359323993;0.00177620819899982
1.58693099132487e-05;0.0160582149409209;0.0138656839027544;0.0021925310381665;1011.90379583174;873.742083057069;138.16171277467;0.0160582149384466;0.0138656839002801;0.0021925310381665
1.95888942291075e-05;0.019822076429054;0.0171156412509986;0.00270643517805535;1011.90379583174;873.742083057069;138.16171277467;0.0198220764265804;0.017115641248525;0.00270643517805535
2.41803064668115e-05;0.0244681439006141;0.021127351343743;0.00334079255687112;1011.90379583174;873.742083057069;138.16171277467;0.0244681438981414;0.0211273513412702;0.00334079255687112
2.98478930964938e-05;0.0302031963243938;0.0260793602914669;0.00412383603292684;1011.90379583174;873.742083057069;138.16171277467;0.030203196321922;0.0260793602889952;0.00412383603292684
3.68438970582328e-05;0.03728247928893;0.032192063366071;0.00509041592285908;1011.90379583174;873.742083057069;138.16171277467;0.0372824792864596;0.0321920633636005;0.00509041592285908
4.54796841455155e-05;0.0460210650225445;0.0397375139645491;0.00628355105799544;1011.90379583174;873.742083057069;138.16171277467;0.0460210650200757;0.0397375139620802;0.00628355105799544
5.61396007242853e-05;0.0568078750718495;0.0490515316812961;0.00775634339055339;1011.90379583174;873.742083057069;138.16171277467;0.0568078750693826;0.0490515316788292;0.00775634339055339
6.92980795424661e-05;0.0701229897353357;0.0605486483737532;0.00957434136158246;1011.90379583174;873.742083057069;138.16171277467;0.0701229897328712;0.0605486483712887;0.00957434136158246
8.55407549451379e-05;0.0865590146297591;0.0747405574145005;0.0118184572152586;1011.90379583174;873.742083057068;138.16171277467;0.0865590146272976;0.074740557412039;0.0118184572152586
0.000105590527254079;0.106847455334735;0.0922588872365311;0.0145885680982041;1011.90379583174;873.742083057068;138.16171277467;0.106847455332277;0.0922588872340732;0.0145885680982041
0.000130339736339072;0.131891273951668;0.113883312736463;0.0180079612152051;1011.90379583174;873.742083057068;138.16171277467;0.131891273949215;0.11388331273401;0.0180079612152051
0.000160889876305476;0.162805076546858;0.140576255668388;0.0222288208784694;1011.90379583174;873.742083057067;138.16171277467;0.16280507654441;0.140576255665941;0.0222288208784694
0.000198600618849278;0.200964720070557;0.173525718412232;0.0274390016583257;1011.90379583174;873.742083057067;138.16171277467;0.200964720068116;0.173525718409791;0.0274390016583257
0.000245150327124552;0.248068546569158;0.21419815748636;0.0338703890827988;1011.90379583174;873.742083057065;138.16171277467;0.248068546566726;0.214198157483927;0.0338703890827988
0.000302610753367717;0.306212969994716;0.264403750005399;0.0418092199893171;1011.90379583173;873.742083057063;138.16171277467;0.306212969992293;0.264403750002976;0.0418092199893171
0.000373539244788575;0.377985779696088;0.326376957847542;0.0516088218485464;1011.90379583173;873.74208305706;138.16171277467;0.377985779693677;0.326376957845131;0.0516088218485463
0.000461092561465149;0.466581313178754;0.402875975139069;0.0637053380396849;1011.90379583173;873.742083057056;138.16171277467;0.466581313176357;0.402875975136673;0.0637053380396848
0.000569167371848246;0.575942624039184;0.497305485089172;0.0786371389500113;1011.90379583172;873.742083057049;138.16171277467;0.575942624036803;0.497305485086792;0.0786371389500111
0.000702573678801637;0.710936972433187;0.613868189619551;0.0970687828136351;1011.90379583171;873.742083057039;138.16171277467;0.710936972430824;0.613868189617189;0.0970687828136348
0.000867248894717869;0.877572448498197;0.757751855802037;0.11982059269616;1011.90379583169;873.742083057023;138.161712774669;0.877572448495852;0.757751855799692;0.11982059269616
0.00107052209338705;1.08326536982235;0.935360203836868;0.14790516598548;1011.90379583167;873.742083056999;138.161712774669;1.08326536982002;0.935360203834537;0.147905165985478
0.00132144019947422;1.33717035381481;1.15459791252615;0.18257244128866;1011.90379583163;873.742083056963;138.161712774668;1.33717035381248;1.15459791252382;0.182572441288658
0.00163117063307085;1.65058775525574;1.42522242676293;0.22536532849281;1011.90379583157;873.742083056907;138.161712774667;1.65058775525338;1.42522242676058;0.225365328492806
0.00201349832951306;2.03746660253707;1.75927822466261;0.278188377874459;1011.90379583149;873.742083056822;138.161712774665;2.03746660253462;1.75927822466017;0.278188377874452
0.00248543925494752;2.51502541639231;2.17163287193137;0.343392544460943;1011.90379583135;873.742083056692;138.161712774662;2.51502541638965;2.17163287192872;0.34339254446093
0.00306799772291244;3.10451854141955;2.68063872123319;0.423879820186359;1011.90379583115;873.742083056495;138.161712774658;3.10451854141644;2.6806387212301;0.423879820186334
0.00378710121724327;3.83218209692812;3.30894970630278;0.523232390625345;1011.90379583085;873.742083056194;138.161712774651;3.83218209692408;3.30894970629878;0.523232390625297
0.00467475432675043;4.73040164781912;4.08452958323452;0.645872064584596;1011.90379583038;873.742083055736;138.161712774642;4.73040164781325;4.08452958322874;0.645872064584506
0.00577046314895684;5.83915356413405;5.04189649197114;0.797257072162911;1011.90379582966;873.742083055038;138.161712774626;5.83915356412463;5.04189649196189;0.797257072162741
0.00712299355774181;7.20778421875765;6.22365922873726;0.984124990020392;1011.90379582858;873.742083053975;138.161712774603;7.20778421874145;6.22365922872137;0.984124990020074
0.00879254158876367;8.89720620866518;7.68241360311937;1.21479260554581;1011.90379582692;873.742083052354;138.161712774568;8.89720620863604;7.68241360309083;1.21479260554521
0.0108534125383441;10.9826093452521;9.483083279505;1.49952606574713;1011.9037958244;873.742083049885;138.161712774515;10.9826093451985;9.48308327945248;1.49952606574601
0.0133973280124169;13.5568070697177;11.7058092849192;1.85099778479853;1011.90379582056;873.742083046123;138.161712774433;13.5568070696177;11.7058092848213;1.85099778479641
0.0165375081098387;16.7343672298496;14.4495167843713;2.28485044547833;1011.9037958147;873.74208304039;138.161712774309;16.7343672296622;14.4495167841878;2.28485044547434
0.0204137104226683;20.6567110635303;17.836317867452;2.82039319607825;1011.90379580577;873.742083031655;138.161712774119;20.656711063178;17.8363178671072;2.82039319607074
0.0251984501203442;25.498407325519;22.0169462976321;3.4814610278868;1011.90379579218;873.742083018346;138.16171277383;25.4984073248561;22.0169462969835;3.48146102787269
0.031104677950285;31.4749416853894;27.1774661044868;4.29747558090262;1011.90379577146;873.742082998065;138.16171277339;31.4749416841421;27.177466103266;4.29747558087607
0.0383952578738096;38.852307183267;33.5475525930213;5.30475459024572;1011.90379573988;873.742082967164;138.16171277272;38.8523071809196;33.5475525907238;5.30475459019578
0.0473946661512641;47.9588425784259;41.4107143266305;6.54812825179538;1011.90379569178;873.74208292008;138.161712771698;47.9588425740087;41.4107143223073;6.54812825170146
0.0585034325585815;59.1998454710494;51.1169110256467;8.08293444540272;1011.90379561848;873.742082848337;138.161712770141;59.1998454627383;51.1169110175122;8.08293444522608
0.0722159664594499;73.0756105721446;63.0981289565949;9.97748161554963;1011.90379550679;873.742082739021;138.161712767769;73.0756105565084;63.098128941291;9.97748161521739
0.0891425611044322;90.2036959370153;77.8876070140187;12.3160889229966;1011.90379533661;873.742082572454;138.161712764155;90.2036959076006;77.8876069852289;12.3160889223717
0.110036555485544;111.346408148388;96.1435691752674;15.2028389731201;1011.9037950773;873.742082318654;138.161712758648;111.346408093056;96.143569121111;15.2028389719447
0.135827862618154;137.444729710961;118.678519570219;18.7662101407414;1011.90379468219;873.742081931935;138.161712750257;137.444729606881;118.67851946835;18.7662101385307
0.16766435646779;169.660198637534;146.49540397876;23.1647946587737;1011.90379408016;873.742081342685;138.161712737472;169.660198441764;146.495403787148;23.1647946546158
0.206962959498127;209.426604128586;180.83224716732;28.5943569612658;1011.90379316283;873.742080444836;138.16171271799;209.426603760359;180.832246806914;28.5943569534452
0.255472704554545;258.513799123819;223.21725270274;35.2965464210787;1011.90379176508;873.74207907677;138.161712688306;258.513798431223;223.217252024854;35.2965464063694
0.31535257773024;319.106469779399;275.536817526115;43.5696522532843;1011.90378962942;873.742076986345;138.161712643075;319.106468474636;275.536816249017;43.5696522256183
0.389267606707762;393.901367597196;340.119488352772;53.7818792444234;1011.90378639861;873.742073824453;138.161712574156;393.901365149909;340.119485957522;53.7818791923876
0.480507471106233;486.227331634939;419.839596474799;66.3877351601394;1011.90378145182;873.742068982676;138.161712469144;486.227327028248;419.839591965993;66.3877350622549
0.593132913734183;600.19344250625;518.245183333674;81.9482591725756;1011.90377391375;873.742061604921;138.161712308827;600.193433840077;518.245174851839;81.9482589882387
0.73215646896159;740.871901933993;639.71591033617;101.155991597823;1011.90376243148;873.742050366655;138.161712064823;740.871885630778;639.71589437971;101.155991251069
0.903765551750408;914.523777026704;789.657980775606;124.865796251098;1011.90374493873;873.742033244736;138.161711693989;914.523746362852;789.657950762953;124.865795599899
1.11559783619637;1128.8776562318;974.74474902761;154.132907204188;1011.90371828618;873.742007158496;138.161711127683;1128.87759855912;974.744692579888;154.132905979231
1.37708117964395;1393.4736186119;1203.21372535445;190.259893257446;1011.90367767268;873.741967407395;138.161710265286;1393.47351013554;1203.2136191818;190.259890953746
1.69985322111701;1720.08782478987;1485.23319446137;234.854630328499;1011.90361578947;873.741906838324;138.161708951143;1720.08762075968;1485.23299476405;234.854625995632
2.09827932881124;2123.25662566338;1833.35476379009;289.901861873283;1011.90352149753;873.741814548913;138.161706948618;2123.25624190957;1833.35438818601;289.901853723562
2.59009194854093;2620.92351338986;2263.07198119994;357.851532189922;1011.9033778223;873.74167392494;138.161703897361;2620.92279159891;2263.07127473766;357.85151686125
3.19717980813223;3235.23770501648;2793.50988109178;441.727823924705;1011.90315889987;873.741459651728;138.161699248138;3235.23634741987;2793.50855232648;441.727795093384
3.94656210227855;3993.53989506757;3448.27614255874;545.263752508827;1011.9028253181;873.741133154044;138.161692164053;3993.53734158899;3448.27364330767;545.263698281325
4.87159101515793;4929.57903863765;4256.51173104267;673.067307594985;1011.90231701964;873.740635649861;138.16168136978;4929.57423581037;4256.50703021024;673.06720560013
6.01343610056597;6085.0142995056;5254.18776410877;830.826535396827;1011.90154248305;873.739877560939;138.161664922111;6085.00526578597;5254.17892222904;830.826343556923
7.42291658373501;7511.26897184829;6485.70628326624;1025.56268858205;1011.9003622302;873.738722370212;138.161639859989;7511.25197988603;6485.68965213329;1025.56232775274
9.16276313369361;9271.81881611378;8005.87610714424;1265.94270896954;1011.89856367598;873.736962004871;138.16160167111;9271.78685428779;8005.84482400368;1265.94203028411
11.3104097691382;11445.016521555;9882.3515739112;1562.66494764384;1011.89582276157;873.734279282551;138.161543479024;11444.9563991127;9882.29272802832;1562.66367108437
13.9614401550343;14127.577751771;12198.6424676306;1928.93528414038;1011.89164538989;873.730190586274;138.161454803616;14127.4646504901;12198.531767517;1928.93288297316
17.2338416716316;17438.8834534208;15057.8286284134;2381.05482500736;1011.88527794507;873.723958274337;138.161319670735;17438.6706699603;15057.6203616111;2381.05030834912
21.2732565884881;21526.289020625;18587.1437013917;2939.14531923326;1011.8755703822;873.714456654537;138.161113727659;21525.8886443632;18586.7518214834;2939.13682287976
26.2594640534845;26571.6749320194;22943.6303912947;3628.0445407247;1011.86076629319;873.699966454848;138.160799838343;26570.9214196073;22942.8928626517;3628.02855695564
32.4143813857534;32799.5272402872;28321.1158189064;4478.41142138079;1011.83817994745;873.677858597776;138.160321349672;32798.1086654832;28319.7273168767;4478.38134860651
40.0119407799435;40486.9015488282;34958.8115542657;5528.08999456248;1011.80369700262;873.644105223126;138.159591779494;40484.2296053967;34956.1962009344;5528.03340446229
49.3902809967351;49975.7025221257;43151.9099061969;6823.7926159288;1011.75099689001;873.592517906056;138.15847898395;49970.6660351242;43146.9799360254;6823.68609909881
60.9667966458462;61687.8035969981;53264.6266700569;8423.17692694127;1011.67032833729;873.513547584638;138.156780752652;61678.299180376;53255.3228229843;8422.9763573917
75.2567148484471;76143.6376118744;65746.2294644519;10397.4081474224;1011.54654978983;873.392362822467;138.154186967359;76125.6702534634;65728.6399997418;10397.0302537216
92.8960260562806;93985.0031120563;81150.6840009813;12834.319111075;1011.35591904781;873.205698642743;138.150220405068;93950.945808039;81117.339333609;12833.6064744301
114.669789591901;116002.936242942;100160.630678069;15842.3055648736;1011.06065586908;872.916512957226;138.14414291185;115938.112673157;100097.152872101;15840.9598010553
141.54707368305;143171.548926647;123616.424889913;19555.1240367338;1010.59929912468;872.464495313005;138.134803811673;143047.37345724;123494.796203915;19552.5772533245
174.724085040529;176688.609528202;152550.815685984;24137.7938422181;1009.86851538861;871.74812724144;138.120388147166;176448.352362511;152315.393918055;24132.9584444562
215.677407514681;218023.006010312;188229.164295764;29793.8417145484;1008.68588695533;870.587904879026;138.0979820763;217550.757095171;187766.142337946;29784.6147572252
266.229719282627;268967.060961115;232192.900132982;36774.1608281326;1006.70540770357;868.642625787465;138.062781916104;268014.898093223;231258.482420321;36756.4156729028
328.630913390787;331684.426332885;286296.659415422;45387.7669174629;1003.1976728501;865.191122955851;138.00654989425;329681.76754024;284328.548994582;45353.2185456584
405.658232022597;408717.363035593;352702.696783501;56014.6662520915;996.363881589747;858.449571061457;137.914310528289;404183.210656869;348237.135277348;55946.0753795213
500.739871090631;502793.44086708;433672.722744174;69120.7181229058;980.572266701201;842.81587346773;137.756393233471;491011.630423007;422031.511833369;68980.1185896385
618.107556328091;615484.338136564;530211.259379087;85273.0787574768;930.585625050253;793.119628558242;137.465996492011;575202.006653861;490233.235483978;84968.7711698828
762.984881467;737289.832728844;632140.533922447;105149.298806398;702.485397372317;565.625078903932;136.860318468385;535985.737646416;431563.383782279;104422.353864137
941.819790726208;820707.205398679;691204.494815381;129502.710583298;284.157288499815;148.903876071597;135.253412428217;267624.957988222;140240.617400073;127384.340588149
1162.57155252941;866560.447376048;707782.422013293;158778.025362755;164.324688234028;36.1097727381515;128.214915495877;191039.207919146;41980.1945536771;149059.013365469
1435.06499657275;901489.692140111;713630.167860533;187859.524279577;80.1737502457937;12.6664201295783;67.5073301162154;115054.542621704;18177.1361598423;96877.4064618619
1771.42778;913179.471158319;716445.409818182;196734.061340137;13.1769437149677;5.52137024341136;7.65557347155634;23342.0041521902;9780.70863284424;13561.2955193459
