H [A/m];M [A/m];M1 [A/m];M2 [A/m];dM/dH;dM1/dH;dM2/dH;dM/dlogH [A/m];dM1/dlogH [A/m];dM2/dlogH [A/m]
3.36568292502726e-05;6.4518827345186;6.21927701394111;0.232605720577498;191696.09487114;184784.994635054;6911.10023608585;6.45188273302203;6.21927701244457;0.23260572057746
3.96509587799394e-05;7.60093395743284;7.32690220684774;0.274031750585106;191696.094845531;184784.994609446;6911.10023608519;7.6009339549955;7.32690220441046;0.274031750585043
4.67126157511027e-05;8.95462602182147;8.63179045207581;0.322835569745661;191696.094809987;184784.994573903;6911.10023608427;8.95462601784588;8.63179044810032;0.322835569745559
5.50319219875746e-05;10.5494045386819;10.1690734096413;0.380331129040595;191696.094760656;184784.994524573;6911.100236083;10.5494045321911;10.1690734031507;0.380331129040428
6.48328591527228e-05;12.428205917909;11.9801395297125;0.448066388196477;191696.094692189;184784.994456107;6911.10023608123;12.4282059073057;11.9801395191095;0.448066388196204
7.63792990342192e-05;14.6416133502563;14.1137483586689;0.527864991587371;191696.094597162;184784.994361083;6911.10023607878;14.6416133329286;14.1137483413417;0.527864991586924
8.99821077953137e-05;17.2492186644376;16.6273432980101;0.621875366427483;191696.094465274;184784.994229199;6911.10023607538;17.2492186361149;16.6273432696882;0.621875366426753
0.000106007515461224;20.3212267247797;19.5885981596492;0.732628565130524;191696.094282226;184784.994046155;6911.10023607066;20.3212266784793;19.58859811335;0.73262856512933
0.000124886975973316;23.9403455647703;23.0772391556379;0.863106409132468;191696.094028171;184784.993792107;6911.10023606411;23.9403454890747;23.0772390799442;0.863106409130517
0.000147128783274471;28.2040131447146;27.1871913758927;1.01682176882188;191696.093675566;184784.993439511;6911.10023605502;28.204013020955;27.1871912521363;1.01682176881868
0.000173331756166884;33.2270206846399;32.0291075436761;1.19791314096381;191696.093186182;184784.99295014;6911.10023604241;33.2270204822916;32.029107341333;1.1979131409586
0.000204201360381324;39.1446032005539;37.7333471306174;1.41125606993651;191696.092506963;184784.992270938;6911.1002360249;39.144602869706;37.733346799778;1.41125606992798
0.000240568701914245;46.1160804506064;44.4534860380186;1.66259441258784;191696.091564267;184784.991328267;6911.1002360006;46.11607990965;44.4534854970761;1.66259441257389
0.000283412902992577;54.3291463162521;52.3704513354812;1.95869498077086;191696.090255892;184784.990019925;6911.10023596686;54.3291454317495;52.3704504510015;1.95869498074806
0.000333887463096977;64.004922101072;61.6973923760545;2.30752972501755;191696.088439987;184784.988204067;6911.10023592005;64.0049206548409;61.6973909298607;2.30752972498027
0.000393351314764434;75.4039097964076;72.6854194321043;2.71849036430335;191696.085919675;184784.98568382;6911.10023585508;75.4039074317;72.6854170674576;2.71849036424238
0.000463405410289302;88.8330055919839;85.6303643515791;3.20264124040481;191696.082421712;184784.982185947;6911.1002357649;88.8330017254853;85.6303604851801;3.20264124030513
0.00054593582435081;104.65376245334;100.880745248862;3.77301720447804;191696.077566858;184784.977331218;6911.10023563974;104.653756131279;100.880738926964;3.77301720431506
0.000643164533024183;123.292124214276;118.847149658383;4.44497455589333;191696.070828763;184784.970593297;6911.10023546603;123.292113877152;118.847139321525;4.44497455562684
0.000757709236304674;145.249893246388;140.013288764695;5.23660448169308;191696.061476901;184784.961241676;6911.10023522494;145.249876344277;140.013271863019;5.23660448125734
0.000892653834753394;171.1182404347;164.949020306947;6.1692201277524;191696.048497371;184784.948262481;6911.10023489033;171.118212798251;164.948992671211;6.16922012703994
0.00105163145771597;201.593621163215;194.325690748099;7.26793041511546;191696.030482968;184784.930248542;6911.10023442592;201.593575975169;194.325645561218;7.26793041395051
0.00123892227849258;237.496525774448;228.934209724017;8.56231605043182;191696.005480624;184784.905246843;6911.10023378136;237.496451887982;228.934135839455;8.56231604852702
0.00145956874994872;279.793569331668;269.706343400869;10.0872259307994;191695.970360981;184784.870128094;6911.10023288677;279.793447829984;269.706221902299;10.0872259276849
0.00171951136306864;329.623514623043;317.739799238331;11.8837153847126;191695.922732331;184784.822500686;6911.10023164515;329.62331739217;317.73960201255;11.8837153796201
0.00202574858349498;388.327931289029;374.327779779547;14.0001515094828;191695.85580891;184784.755578988;6911.10022992191;388.327608366757;374.327456865601;14.0001515011561
0.00238652527204503;457.487311103417;440.993795739165;16.4935153642519;191695.762985306;184784.662757775;6911.1002275302;457.486782908387;440.99326755775;16.493515350637
0.00281155466207129;538.963617604265;519.532681526582;19.4309360776832;191695.634223069;184784.533998858;6911.10022421073;538.962754098583;519.531818043161;19.4309360554216
0.00331227986998901;634.950410441164;612.058912267894;22.8914981732693;191695.455485802;184784.355266199;6911.10021960361;634.948998373997;612.057500237127;22.8914981368697
0.0039021819796496;748.031892931262;721.063522160207;26.9683707710546;191695.20745724;184784.107244031;6911.10021320934;748.029584124836;721.061213413298;26.968370711538
0.00459714299515174;881.252472644966;849.481156654502;31.7713159904639;191694.863259909;184783.763055574;6911.10020433467;881.248697841859;849.47738194871;31.7713158931489
0.00541587343391156;1038.19870183374;1000.76905774557;37.4296440881671;191694.385500313;184783.285308296;6911.10019201745;1038.19252986115;1000.7628859321;37.4296439290484
0.00638041607213065;1223.09579910627;1179.00010421391;44.0956948923523;191693.722390908;184782.622215986;6911.10017492226;1223.0857072695;1178.99001263732;44.0956946321789
0.00751673940506046;1440.92133999248;1388.97240072827;51.9489392642186;191692.802079928;184781.701928732;6911.10015119569;1440.90483906065;1388.95590022184;51.948938838812
0.00885543679986388;1697.53916311142;1636.33835210102;61.2008110104087;191691.524798394;184780.424680128;6911.10011826537;1697.51218292171;1636.31137260688;61.2008103148308
0.0104325501644489;1999.85706894471;1927.75666960886;72.1003993358523;191689.752078192;184778.652005631;6911.10007256109;1999.81295456652;1927.712556368;72.1003981985203
0.0122905403080079;2356.01251560467;2271.07136051017;84.9411550944973;191687.291782541;184776.191773413;6911.1000091277;2355.94038618619;2270.99923295134;84.9411532348579
0.014479430118393;2775.59124018159;2675.52244879207;100.068791389517;191683.877262603;184772.777341392;6911.09992121158;2775.47330564648;2675.40451729606;100.068788350414
0.0170581513342277;3269.88457771342;3151.99398648593;117.890591227492;191679.13849813;184768.038699263;6911.09979886767;3269.6917521155;3151.80116586047;117.890586255036
0.0200961311710596;3852.19221816877;3713.30584535304;138.886372815734;191672.562069178;184761.462439886;6911.09962929231;3851.87694923526;3712.99058454874;138.88636468652
0.023675161518475;4538.17824744405;4374.55683973016;163.621407713884;191663.435622286;184752.336228527;6911.09939375936;4537.66279554347;4374.04140112598;163.621394417488
0.0278916010327936;5346.2895578326;5153.52791821667;192.761639615931;191650.770951273;184739.671883764;6911.09906750864;5345.44684100021;5152.68522311115;192.761617889063
0.0328589694125408;6298.24707804516;6071.15546454864;227.091613496526;191633.197403156;184722.09878934;6911.09861381598;6296.86937189771;6069.77779393928;227.091577958432
0.0387110037026852;7419.62171549734;7152.08611772241;267.535597774924;191608.81435377;184697.716369257;6911.09798451331;7417.36952191591;7149.8339822478;267.535539668115
0.0456052589128794;8740.50834434572;8425.32587620979;315.182468135923;191574.987215124;184663.890103927;6911.0971111976;8736.8268931773;8421.64452004908;315.182373128219
0.053727349889574;10296.3124411747;9924.99741834328;371.315022831445;191528.06577704;184616.969878103;6911.09589893646;10290.2954036763;9918.98053619379;371.314867482559
0.0632959486464289;12128.6647764271;11691.2202577964;437.444518630724;191462.996101779;184551.901885187;6911.09421659239;12118.8319689496;11681.3877043256;437.444264624064
0.0745686716967371;14286.4794032125;13771.1280463061;515.351356906447;191372.787261144;184461.695379577;6911.09188156752;14270.4145449658;13755.0636033832;515.350941582594
0.0878490158932074;16827.1682006437;16220.0351857095;607.133014934206;191247.78153523;184336.692894493;6911.08864073702;16800.9293996291;16193.7970637896;607.132335839472
0.103494529509538;19818.0200356289;19102.7595234893;715.260512139534;191074.661211541;184163.577068756;6911.08414278448;19775.1821632827;19059.9227615244;715.259401758306
0.121926438554775;23337.7419852946;22495.0970547963;842.644930498264;190835.107578296;183924.029678329;6911.07789996699;23267.8450182389;22425.2019033213;842.643114917587
0.143640987490853;27478.1405426893;26485.42476444;992.715778249209;190504.010652372;183592.941416905;6911.06923546667;27364.1842110747;26371.4714014746;992.712809600089
0.169222799680795;32345.8870711841;31176.3737673485;1169.51330383561;190047.117779312;183136.060569519;6911.05720979258;32160.305341881;30990.7968920857;1169.50844979525
0.199360617272491;38064.2564139528;36686.4591732187;1377.79724073414;189418.018403911;182506.9778849;6911.04051901093;37762.4930715358;36384.7037676706;1377.78930386521
0.234865844284806;44774.6403558749;43151.4654526636;1623.17490321125;188554.415482538;181643.398129255;6911.01735328261;44284.9919859342;42661.8300603886;1623.16192554566
0.276694392133717;52637.5066540361;50725.2545848995;1912.25206913657;187373.773512469;180462.788311993;6910.98520047587;51845.2723638334;49933.0415147426;1912.23084909079
0.325972415748152;61832.2894490898;59579.4787576294;2252.81069146047;185768.724220136;178857.783646508;6910.94057362747;60555.4798044899;58302.7038106126;2252.77599387726
0.384026633172005;72555.4589274655;69901.4407382927;2654.01818917279;183603.13687199;176692.258239612;6910.87863237799;70508.4944927692;67854.5330393167;2653.96145345247
0.452420044950573;85015.7581191161;81889.0842217768;3126.67389733924;180710.586758611;173799.794101296;6910.79265731521;81757.0917843754;78630.5106597088;3126.58112466664
0.532994014978645;99425.4051952088;95741.9059740495;3683.49922115935;176898.029922953;169987.356603242;6910.67331971126;94285.5912104475;90602.2436915687;3683.34751887871
0.627917845757902;115986.130476218;111646.651317991;4339.47915822695;171958.446870008;165047.939203223;6910.50766678546;107975.77751849;103636.546431269;4339.23108722139
0.739747182784108;134869.541039691;129757.276897547;5112.26414214432;165696.134396656;158785.85668574;6910.2777109164;122573.248618143;117461.390149237;5111.85846890622
0.871492820492336;156192.775603821;150170.13297314;6022.64263068122;157965.75717349;151055.798706488;6909.95846700261;137666.023260332;131644.044066439;6021.979193893
1.02670176223076;179992.732750193;172897.636236345;7095.09651384835;148720.117606104;141810.6023865;6909.51521960407;152691.206825353;145597.195373226;7094.01145212778
1.20955271665032;206204.631477141;197846.178244404;8358.453232737;138053.110142937;131144.210430104;6908.89971283299;166982.514415416;158625.835998694;8356.67841672176
1.42496860157073;234651.78207004;224805.13164712;9846.65042292007;126218.739037267;119310.694208088;6908.04482917918;179857.740057955;170013.993078131;9843.74697982334
1.67874908427778;265051.650200761;253452.019395897;11599.6308048633;113611.387608106;106704.530467813;6906.85714029302;190725.012910635;179130.132811131;11594.8800995043
1.97772672664999;297038.537303318;283374.150603083;13664.3867002348;100708.245910346;93803.0394657364;6905.20644460999;199173.389530932;185516.778192391;13656.6113385409
2.32995093902817;330197.749707518;314101.575191325;16096.1745161923;87992.9595310146;81090.0485236264;6902.91100738818;205019.278687155;188935.834703463;16083.443983692
2.74490469543975;364103.166712045;345143.247699307;18959.9190127384;75887.0188511251;68987.3022396622;6899.71661146295;208302.634367378;189363.56984337;18939.0645240083
3.23375984482739;398351.078910525;376019.255185496;22331.8237250289;64707.6995889841;57812.4330090547;6895.26657992948;209249.160582011;186951.524396455;22297.6361855563
3.80967789205621;432586.721545829;406285.526547165;26301.1949986648;54656.2712690442;47767.2128579306;6889.05841111365;208222.788315905;181977.694790001;26245.0935259036
4.48816434666209;466523.502124512;435551.034034661;30972.468089851;45828.5219707785;38948.1418277395;6880.38014303902;205685.938369468;174805.661519999;30880.2768494696
5.2874861795144;499956.765486973;463489.379315629;36467.3861713442;38236.0111876535;31367.7959592622;6868.21522839126;202172.380714475;165856.787616426;36315.5930980491
6.22916362662793;532773.804964496;489846.594174855;42927.2107896411;31828.8377083718;24977.7407405246;6851.09696784722;198267.038130833;155590.434096218;42676.6040346148
7.3385495810162;564960.424584847;514445.720609402;50514.7039754442;26515.0848931288;19688.2056702145;6826.87922291432;194582.265133079;144482.873472113;50099.391660966
8.64551217162141;596602.641206092;537187.286936818;59415.3542692736;22175.7807675362;15383.4182242733;6792.36254326291;191720.982540942;132997.529499098;58723.4530418448
10.1852389064739;627880.899885279;558044.1128888;69836.7869964788;18676.2310298908;11933.5713667067;6742.65966318406;190221.874911939;121546.275377364;68675.5995345744
11.9991840301225;659053.812635209;577049.606756752;82004.2058784574;15874.943804998;9204.8737895281;6670.07001546994;190486.372184025;110450.974574599;80035.3976094261
14.1361846011517;690428.191826922;594280.819916974;96147.3719099483;13630.4174946031;7068.42710953601;6561.99038506706;192682.097894477;99920.5904601862;92761.5074342905
16.6537753380717;722309.31021135;609839.905249177;112469.404962173;11804.4014061933;5407.52119657512;6396.88020961816;196587.849019161;90055.643143623;106532.205875538
19.6197376333335;754914.329822008;623838.529025648;131075.80079636;10258.6571872969;4122.28172327737;6136.37546401958;201272.162485077;80878.0858613879;120394.076623689
23.1139244397549;788204.699057351;636388.219564735;151816.479492616;8842.24330151244;3131.03561334171;5711.20768817074;204378.943549087;72370.5205849618;132008.422964126
27.2304101609908;821555.301352885;647596.60501294;173958.696339946;7377.26522671235;2368.91074843528;5008.35447827708;200885.957989793;64506.4113146723;136379.54667512
32.0800234278024;853276.04677646;657567.240811331;195708.805965129;5713.94550377685;1785.02190730408;3928.92359647277;183303.505626348;57263.5446054556;126039.961020892
37.7933309503593;880760.025873343;666400.50412432;214359.521749022;3974.73780269082;1339.51886444597;2635.21893824485;150218.581217998;50624.8797582561;99593.7014597421
44.5241527811824;902351.567793922;674194.142788421;228157.425005501;2559.41993431148;1001.13428747485;1558.28564683663;113956.004186488;44574.6559700105;69381.3482164778
52.4537036305668;918547.544218894;681043.165511595;237504.378707299;1624.98584126949;745.318805787037;879.667035482456;85236.5257218172;39094.7317490412;46141.793972776
61.7954717316075;930767.808098163;687039.265586841;243728.542511322;1054.00534247729;552.833404358272;501.171938119014;65132.7573460184;34162.6010113099;30970.1563347085
72.8009666090885;940232.848047323;692270.048768183;247962.799279139;703.004441962055;408.660897038635;294.34354492342;51179.4029053205;29750.9083197498;21428.4945855707
85.7664905000915;947757.471626389;696818.269777477;250939.201848912;479.865884744662;301.142734246133;178.72315049853;41156.4128452711;25827.9554558925;15328.4573893786
101.041115734087;953860.608528324;700761.201765911;253099.406762413;333.086969410483;221.283704812186;111.803264598297;33655.479025721;22358.7524279957;11296.7265977253
119.036082848444;958881.302896135;704170.19930204;254711.103594095;233.898035656388;162.188488340208;71.7095473161803;27842.305950482;19306.2823351288;8536.02361535323
140.235872465939;963051.784572392;707110.470282861;255941.314289531;165.549787796312;118.605577795607;46.9442100007053;23216.0189281669;16632.7566814937;6583.26224667316
165.211249023725;966539.003399779;709641.04308581;256897.960313969;117.807599885823;86.5602459480915;31.2473539377311;19463.140721624;14300.726348885;5162.41437273896
194.634627531617;969468.104611222;711814.899040684;257653.205570538;84.1443272123344;63.0616532982515;21.0826739140829;16377.3997858712;12273.9814012331;4103.41838463805
229.298177080733;971936.071538851;713679.23353703;258256.838001822;60.2540561243535;45.8713670835214;14.3826890408322;13816.1452310344;10518.2208524526;3297.92437858186
270.135148505403;974019.984609181;715275.808709754;258744.175899427;43.2235083873774;33.3222246765651;9.90128371081236;11676.1888571487;9001.5041115343;2674.68474561442
318.245000405492;975782.255609177;716641.364109758;259140.891499419;31.0452307453517;24.177953131406;6.86727761394565;9879.98947114303;7694.51270410828;2185.47676703476
374.923;977274.10367774;717808.057139233;259466.046538506;22.3178037026795;17.5253529225691;4.79245078011045;8367.45791761972;6570.65789378837;1796.80002383135
